time,h,der(h),v,der(v),g,e
0.00000,1.000000000000000,0.000000000000000,0.000000000000000,-9.810000000000000,9.810000000000000,0.7000000000000000
0.0100000,0.9995585500000000,-0.09810000000000000,-0.09810000000000000,-9.810000000000000,9.810000000000000,0.7000000000000000
0.0200000,0.9981361000000002,-0.1962000000000001,-0.1962000000000001,-9.810000000000000,9.810000000000000,0.7000000000000000
0.0300000,0.9957326500000004,-0.2943000000000001,-0.2943000000000001,-9.810000000000000,9.810000000000000,0.7000000000000000
0.0400000,0.9923482000000008,-0.3924000000000000,-0.3924000000000000,-9.810000000000000,9.810000000000000,0.7000000000000000
0.0500000,0.9879827500000012,-0.4904999999999998,-0.4904999999999998,-9.810000000000000,9.810000000000000,0.7000000000000000
0.0600000,0.9826363000000014,-0.5885999999999997,-0.5885999999999997,-9.810000000000000,9.810000000000000,0.7000000000000000
0.0700000,0.9763088500000009,-0.6866999999999995,-0.6866999999999995,-9.810000000000000,9.810000000000000,0.7000000000000000
0.0800000,0.9690004000000005,-0.7847999999999994,-0.7847999999999994,-9.810000000000000,9.810000000000000,0.7000000000000000
0.0900000,0.9607109500000003,-0.8828999999999992,-0.8828999999999992,-9.810000000000000,9.810000000000000,0.7000000000000000
0.100000,0.9514405000000001,-0.9809999999999991,-0.9809999999999991,-9.810000000000000,9.810000000000000,0.7000000000000000
0.110000,0.9411890500000001,-1.079100000000000,-1.079100000000000,-9.810000000000000,9.810000000000000,0.7000000000000000
0.120000,0.9299566000000001,-1.177200000000001,-1.177200000000001,-9.810000000000000,9.810000000000000,0.7000000000000000
0.130000,0.9177431500000003,-1.275300000000002,-1.275300000000002,-9.810000000000000,9.810000000000000,0.7000000000000000
0.140000,0.9045487000000005,-1.373400000000003,-1.373400000000003,-9.810000000000000,9.810000000000000,0.7000000000000000
0.150000,0.8903732500000009,-1.471500000000004,-1.471500000000004,-9.810000000000000,9.810000000000000,0.7000000000000000
0.160000,0.8752168000000013,-1.569600000000005,-1.569600000000005,-9.810000000000000,9.810000000000000,0.7000000000000000
0.170000,0.8590793500000008,-1.667700000000006,-1.667700000000006,-9.810000000000000,9.810000000000000,0.7000000000000000
0.180000,0.8419609000000003,-1.765800000000007,-1.765800000000007,-9.810000000000000,9.810000000000000,0.7000000000000000
0.190000,0.8238614500000000,-1.863900000000008,-1.863900000000008,-9.810000000000000,9.810000000000000,0.7000000000000000
0.200000,0.8047809999999997,-1.962000000000009,-1.962000000000009,-9.810000000000000,9.810000000000000,0.7000000000000000
0.210000,0.7847195499999996,-2.060100000000008,-2.060100000000008,-9.810000000000000,9.810000000000000,0.7000000000000000
0.220000,0.7636770999999996,-2.158200000000007,-2.158200000000007,-9.810000000000000,9.810000000000000,0.7000000000000000
0.230000,0.7416536499999996,-2.256300000000006,-2.256300000000006,-9.810000000000000,9.810000000000000,0.7000000000000000
0.240000,0.7186491999999998,-2.354400000000005,-2.354400000000005,-9.810000000000000,9.810000000000000,0.7000000000000000
0.250000,0.6946637500000000,-2.452500000000003,-2.452500000000003,-9.810000000000000,9.810000000000000,0.7000000000000000
0.260000,0.6696973000000004,-2.550600000000002,-2.550600000000002,-9.810000000000000,9.810000000000000,0.7000000000000000
0.270000,0.6437498500000008,-2.648700000000001,-2.648700000000001,-9.810000000000000,9.810000000000000,0.7000000000000000
0.280000,0.6168214000000007,-2.746800000000000,-2.746800000000000,-9.810000000000000,9.810000000000000,0.7000000000000000
0.290000,0.5889119500000003,-2.844899999999998,-2.844899999999998,-9.810000000000000,9.810000000000000,0.7000000000000000
0.300000,0.5600215000000000,-2.942999999999997,-2.942999999999997,-9.810000000000000,9.810000000000000,0.7000000000000000
0.310000,0.5301500499999997,-3.041099999999996,-3.041099999999996,-9.810000000000000,9.810000000000000,0.7000000000000000
0.320000,0.4992975999999996,-3.139199999999994,-3.139199999999994,-9.810000000000000,9.810000000000000,0.7000000000000000
0.330000,0.4674641499999995,-3.237299999999993,-3.237299999999993,-9.810000000000000,9.810000000000000,0.7000000000000000
0.340000,0.4346496999999996,-3.335399999999992,-3.335399999999992,-9.810000000000000,9.810000000000000,0.7000000000000000
0.350000,0.4008542499999998,-3.433499999999991,-3.433499999999991,-9.810000000000000,9.810000000000000,0.7000000000000000
0.360000,0.3660778000000000,-3.531599999999989,-3.531599999999989,-9.810000000000000,9.810000000000000,0.7000000000000000
0.370000,0.3303203500000003,-3.629699999999988,-3.629699999999988,-9.810000000000000,9.810000000000000,0.7000000000000000
0.380000,0.2935819000000002,-3.727799999999987,-3.727799999999987,-9.810000000000000,9.810000000000000,0.7000000000000000
0.390000,0.2558624500000002,-3.825899999999986,-3.825899999999986,-9.810000000000000,9.810000000000000,0.7000000000000000
0.400000,0.2171620000000003,-3.923999999999984,-3.923999999999984,-9.810000000000000,9.810000000000000,0.7000000000000000
0.410000,0.1774805500000005,-4.022099999999983,-4.022099999999983,-9.810000000000000,9.810000000000000,0.7000000000000000
0.420000,0.1368181000000007,-4.120199999999982,-4.120199999999982,-9.810000000000000,9.810000000000000,0.7000000000000000
0.430000,0.09517465000000083,-4.218299999999981,-4.218299999999981,-9.810000000000000,9.810000000000000,0.7000000000000000
0.440000,0.05255020000000105,-4.316399999999979,-4.316399999999979,-9.810000000000000,9.810000000000000,0.7000000000000000
0.450000,0.008944750000001257,-4.414499999999978,-4.414499999999978,-9.810000000000000,9.810000000000000,0.7000000000000000
0.460000,0.01724106700000121,3.042080999999985,3.042080999999985,-9.810000000000000,9.810000000000000,0.7000000000000000
0.470000,0.04722042700000108,2.943980999999986,2.943980999999986,-9.810000000000000,9.810000000000000,0.7000000000000000
0.480000,0.07621878700000097,2.845880999999987,2.845880999999987,-9.810000000000000,9.810000000000000,0.7000000000000000
0.490000,0.1042361470000008,2.747780999999989,2.747780999999989,-9.810000000000000,9.810000000000000,0.7000000000000000
0.500000,0.1312725070000007,2.649680999999990,2.649680999999990,-9.810000000000000,9.810000000000000,0.7000000000000000
0.510000,0.1573278670000007,2.551580999999991,2.551580999999991,-9.810000000000000,9.810000000000000,0.7000000000000000
0.520000,0.1824022270000006,2.453480999999993,2.453480999999993,-9.810000000000000,9.810000000000000,0.7000000000000000
0.530000,0.2064955870000005,2.355380999999994,2.355380999999994,-9.810000000000000,9.810000000000000,0.7000000000000000
0.540000,0.2296079470000004,2.257280999999995,2.257280999999995,-9.810000000000000,9.810000000000000,0.7000000000000000
0.550000,0.2517393070000005,2.159180999999996,2.159180999999996,-9.810000000000000,9.810000000000000,0.7000000000000000
0.560000,0.2728896670000006,2.061080999999998,2.061080999999998,-9.810000000000000,9.810000000000000,0.7000000000000000
0.570000,0.2930590270000007,1.962980999999998,1.962980999999998,-9.810000000000000,9.810000000000000,0.7000000000000000
0.580000,0.3122473870000005,1.864880999999997,1.864880999999997,-9.810000000000000,9.810000000000000,0.7000000000000000
0.590000,0.3304547470000004,1.766780999999996,1.766780999999996,-9.810000000000000,9.810000000000000,0.7000000000000000
0.600000,0.3476811070000004,1.668680999999995,1.668680999999995,-9.810000000000000,9.810000000000000,0.7000000000000000
0.610000,0.3639264670000005,1.570580999999994,1.570580999999994,-9.810000000000000,9.810000000000000,0.7000000000000000
0.620000,0.3791908270000005,1.472480999999993,1.472480999999993,-9.810000000000000,9.810000000000000,0.7000000000000000
0.630000,0.3934741870000002,1.374380999999992,1.374380999999992,-9.810000000000000,9.810000000000000,0.7000000000000000
0.640000,0.4067765470000000,1.276280999999991,1.276280999999991,-9.810000000000000,9.810000000000000,0.7000000000000000
0.650000,0.4190979070000000,1.178180999999990,1.178180999999990,-9.810000000000000,9.810000000000000,0.7000000000000000
0.660000,0.4304382670000000,1.080080999999989,1.080080999999989,-9.810000000000000,9.810000000000000,0.7000000000000000
0.670000,0.4407976270000000,0.9819809999999884,0.9819809999999884,-9.810000000000000,9.810000000000000,0.7000000000000000
0.680000,0.4501759869999997,0.8838809999999886,0.8838809999999886,-9.810000000000000,9.810000000000000,0.7000000000000000
0.690000,0.4585733469999995,0.7857809999999887,0.7857809999999887,-9.810000000000000,9.810000000000000,0.7000000000000000
0.700000,0.4659897069999994,0.6876809999999889,0.6876809999999889,-9.810000000000000,9.810000000000000,0.7000000000000000
0.710000,0.4724250669999994,0.5895809999999890,0.5895809999999890,-9.810000000000000,9.810000000000000,0.7000000000000000
0.720000,0.4778794269999995,0.4914809999999892,0.4914809999999892,-9.810000000000000,9.810000000000000,0.7000000000000000
0.730000,0.4823527869999992,0.3933809999999893,0.3933809999999893,-9.810000000000000,9.810000000000000,0.7000000000000000
0.740000,0.4858451469999990,0.2952809999999895,0.2952809999999895,-9.810000000000000,9.810000000000000,0.7000000000000000
0.750000,0.4883565069999988,0.1971809999999895,0.1971809999999895,-9.810000000000000,9.810000000000000,0.7000000000000000
0.760000,0.4898868669999988,0.09908099999998936,0.09908099999998936,-9.810000000000000,9.810000000000000,0.7000000000000000
0.770000,0.4904362269999988,0.0009809999999893620,0.0009809999999893620,-9.810000000000000,9.810000000000000,0.7000000000000000
0.780000,0.4900045869999988,-0.09711900000001064,-0.09711900000001064,-9.810000000000000,9.810000000000000,0.7000000000000000
0.790000,0.4885919469999985,-0.1952190000000108,-0.1952190000000108,-9.810000000000000,9.810000000000000,0.7000000000000000
0.800000,0.4861983069999983,-0.2933190000000108,-0.2933190000000108,-9.810000000000000,9.810000000000000,0.7000000000000000
0.810000,0.4828236669999982,-0.3914190000000106,-0.3914190000000106,-9.810000000000000,9.810000000000000,0.7000000000000000
0.820000,0.4784680269999982,-0.4895190000000105,-0.4895190000000105,-9.810000000000000,9.810000000000000,0.7000000000000000
0.830000,0.4731313869999984,-0.5876190000000103,-0.5876190000000103,-9.810000000000000,9.810000000000000,0.7000000000000000
0.840000,0.4668137469999981,-0.6857190000000102,-0.6857190000000102,-9.810000000000000,9.810000000000000,0.7000000000000000
0.850000,0.4595151069999979,-0.7838190000000100,-0.7838190000000100,-9.810000000000000,9.810000000000000,0.7000000000000000
0.860000,0.4512354669999977,-0.8819190000000099,-0.8819190000000099,-9.810000000000000,9.810000000000000,0.7000000000000000
0.870000,0.4419748269999977,-0.9800190000000097,-0.9800190000000097,-9.810000000000000,9.810000000000000,0.7000000000000000
0.880000,0.4317331869999977,-1.078119000000011,-1.078119000000011,-9.810000000000000,9.810000000000000,0.7000000000000000
0.890000,0.4205105469999977,-1.176219000000011,-1.176219000000011,-9.810000000000000,9.810000000000000,0.7000000000000000
0.900000,0.4083069069999974,-1.274319000000012,-1.274319000000012,-9.810000000000000,9.810000000000000,0.7000000000000000
0.910000,0.3951222669999972,-1.372419000000013,-1.372419000000013,-9.810000000000000,9.810000000000000,0.7000000000000000
0.920000,0.3809566269999971,-1.470519000000014,-1.470519000000014,-9.810000000000000,9.810000000000000,0.7000000000000000
0.930000,0.3658099869999971,-1.568619000000015,-1.568619000000015,-9.810000000000000,9.810000000000000,0.7000000000000000
0.940000,0.3496823469999970,-1.666719000000016,-1.666719000000016,-9.810000000000000,9.810000000000000,0.7000000000000000
0.950000,0.3325737069999967,-1.764819000000017,-1.764819000000017,-9.810000000000000,9.810000000000000,0.7000000000000000
0.960000,0.3144840669999964,-1.862919000000018,-1.862919000000018,-9.810000000000000,9.810000000000000,0.7000000000000000
0.970000,0.2954134269999963,-1.961019000000019,-1.961019000000019,-9.810000000000000,9.810000000000000,0.7000000000000000
0.980000,0.2753617869999963,-2.059119000000019,-2.059119000000019,-9.810000000000000,9.810000000000000,0.7000000000000000
0.990000,0.2543291469999963,-2.157219000000017,-2.157219000000017,-9.810000000000000,9.810000000000000,0.7000000000000000
1.00000,0.2323155069999961,-2.255319000000016,-2.255319000000016,-9.810000000000000,9.810000000000000,0.7000000000000000
1.01000,0.2093208669999959,-2.353419000000015,-2.353419000000015,-9.810000000000000,9.810000000000000,0.7000000000000000
1.02000,0.1853452269999957,-2.451519000000014,-2.451519000000014,-9.810000000000000,9.810000000000000,0.7000000000000000
1.03000,0.1603885869999956,-2.549619000000012,-2.549619000000012,-9.810000000000000,9.810000000000000,0.7000000000000000
1.04000,0.1344509469999956,-2.647719000000011,-2.647719000000011,-9.810000000000000,9.810000000000000,0.7000000000000000
1.05000,0.1075323069999954,-2.745819000000010,-2.745819000000010,-9.810000000000000,9.810000000000000,0.7000000000000000
1.06000,0.07963266699999531,-2.843919000000009,-2.843919000000009,-9.810000000000000,9.810000000000000,0.7000000000000000
1.07000,0.05075202699999522,-2.942019000000007,-2.942019000000007,-9.810000000000000,9.810000000000000,0.7000000000000000
1.08000,0.02089038699999515,-3.040119000000006,-3.040119000000006,-9.810000000000000,9.810000000000000,0.7000000000000000
1.09000,0.005902570899995124,2.146722300000004,2.146722300000004,-9.810000000000000,9.810000000000000,0.7000000000000000
1.10000,0.02692834389999517,2.048622300000005,2.048622300000005,-9.810000000000000,9.810000000000000,0.7000000000000000
1.11000,0.04697311689999523,1.950522300000005,1.950522300000005,-9.810000000000000,9.810000000000000,0.7000000000000000
1.12000,0.06603688989999527,1.852422300000004,1.852422300000004,-9.810000000000000,9.810000000000000,0.7000000000000000
1.13000,0.08411966289999531,1.754322300000003,1.754322300000003,-9.810000000000000,9.810000000000000,0.7000000000000000
1.14000,0.1012214358999954,1.656222300000002,1.656222300000002,-9.810000000000000,9.810000000000000,0.7000000000000000
1.15000,0.1173422088999954,1.558122300000001,1.558122300000001,-9.810000000000000,9.810000000000000,0.7000000000000000
1.16000,0.1324819818999954,1.460022300000000,1.460022300000000,-9.810000000000000,9.810000000000000,0.7000000000000000
1.17000,0.1466407548999954,1.361922299999999,1.361922299999999,-9.810000000000000,9.810000000000000,0.7000000000000000
1.18000,0.1598185278999953,1.263822299999998,1.263822299999998,-9.810000000000000,9.810000000000000,0.7000000000000000
1.19000,0.1720153008999953,1.165722299999997,1.165722299999997,-9.810000000000000,9.810000000000000,0.7000000000000000
1.20000,0.1832310738999953,1.067622299999997,1.067622299999997,-9.810000000000000,9.810000000000000,0.7000000000000000
1.21000,0.1934658468999952,0.9695222999999960,0.9695222999999960,-9.810000000000000,9.810000000000000,0.7000000000000000
1.22000,0.2027196198999953,0.8714222999999961,0.8714222999999961,-9.810000000000000,9.810000000000000,0.7000000000000000
1.23000,0.2109923928999952,0.7733222999999962,0.7733222999999962,-9.810000000000000,9.810000000000000,0.7000000000000000
1.24000,0.2182841658999951,0.6752222999999964,0.6752222999999964,-9.810000000000000,9.810000000000000,0.7000000000000000
1.25000,0.2245949388999952,0.5771222999999965,0.5771222999999965,-9.810000000000000,9.810000000000000,0.7000000000000000
1.26000,0.2299247118999951,0.4790222999999967,0.4790222999999967,-9.810000000000000,9.810000000000000,0.7000000000000000
1.27000,0.2342734848999951,0.3809222999999968,0.3809222999999968,-9.810000000000000,9.810000000000000,0.7000000000000000
1.28000,0.2376412578999951,0.2828222999999970,0.2828222999999970,-9.810000000000000,9.810000000000000,0.7000000000000000
1.29000,0.2400280308999950,0.1847222999999969,0.1847222999999969,-9.810000000000000,9.810000000000000,0.7000000000000000
1.30000,0.2414338038999950,0.08662229999999685,0.08662229999999685,-9.810000000000000,9.810000000000000,0.7000000000000000
1.31000,0.2418585768999950,-0.01147770000000315,-0.01147770000000315,-9.810000000000000,9.810000000000000,0.7000000000000000
1.32000,0.2413023498999949,-0.1095777000000032,-0.1095777000000032,-9.810000000000000,9.810000000000000,0.7000000000000000
1.33000,0.2397651228999949,-0.2076777000000033,-0.2076777000000033,-9.810000000000000,9.810000000000000,0.7000000000000000
1.34000,0.2372468958999948,-0.3057777000000033,-0.3057777000000033,-9.810000000000000,9.810000000000000,0.7000000000000000
1.35000,0.2337476688999948,-0.4038777000000031,-0.4038777000000031,-9.810000000000000,9.810000000000000,0.7000000000000000
1.36000,0.2292674418999948,-0.5019777000000030,-0.5019777000000030,-9.810000000000000,9.810000000000000,0.7000000000000000
1.37000,0.2238062148999948,-0.6000777000000028,-0.6000777000000028,-9.810000000000000,9.810000000000000,0.7000000000000000
1.38000,0.2173639878999947,-0.6981777000000027,-0.6981777000000027,-9.810000000000000,9.810000000000000,0.7000000000000000
1.39000,0.2099407608999948,-0.7962777000000025,-0.7962777000000025,-9.810000000000000,9.810000000000000,0.7000000000000000
1.40000,0.2015365338999947,-0.8943777000000024,-0.8943777000000024,-9.810000000000000,9.810000000000000,0.7000000000000000
1.41000,0.1921513068999947,-0.9924777000000022,-0.9924777000000022,-9.810000000000000,9.810000000000000,0.7000000000000000
1.42000,0.1817850798999947,-1.090577700000003,-1.090577700000003,-9.810000000000000,9.810000000000000,0.7000000000000000
1.43000,0.1704378528999946,-1.188677700000004,-1.188677700000004,-9.810000000000000,9.810000000000000,0.7000000000000000
1.44000,0.1581096258999946,-1.286777700000005,-1.286777700000005,-9.810000000000000,9.810000000000000,0.7000000000000000
1.45000,0.1448003988999945,-1.384877700000006,-1.384877700000006,-9.810000000000000,9.810000000000000,0.7000000000000000
1.46000,0.1305101718999944,-1.482977700000007,-1.482977700000007,-9.810000000000000,9.810000000000000,0.7000000000000000
1.47000,0.1152389448999944,-1.581077700000008,-1.581077700000008,-9.810000000000000,9.810000000000000,0.7000000000000000
1.48000,0.09898671789999429,-1.679177700000009,-1.679177700000009,-9.810000000000000,9.810000000000000,0.7000000000000000
1.49000,0.08175349089999419,-1.777277700000010,-1.777277700000010,-9.810000000000000,9.810000000000000,0.7000000000000000
1.50000,0.06353926389999409,-1.875377700000011,-1.875377700000011,-9.810000000000000,9.810000000000000,0.7000000000000000
1.51000,0.04434403689999397,-1.973477700000012,-1.973477700000012,-9.810000000000000,9.810000000000000,0.7000000000000000
1.52000,0.02416780989999385,-2.071577700000011,-2.071577700000011,-9.810000000000000,9.810000000000000,0.7000000000000000
1.53000,0.003010582899993743,-2.169677700000010,-2.169677700000010,-9.810000000000000,9.810000000000000,0.7000000000000000
1.54000,0.01064680461999377,1.454028390000006,1.454028390000006,-9.810000000000000,9.810000000000000,0.7000000000000000
1.55000,0.02474563851999383,1.355928390000005,1.355928390000005,-9.810000000000000,9.810000000000000,0.7000000000000000
1.56000,0.03786347241999388,1.257828390000004,1.257828390000004,-9.810000000000000,9.810000000000000,0.7000000000000000
1.57000,0.05000030631999391,1.159728390000003,1.159728390000003,-9.810000000000000,9.810000000000000,0.7000000000000000
1.58000,0.06115614021999394,1.061628390000002,1.061628390000002,-9.810000000000000,9.810000000000000,0.7000000000000000
1.59000,0.07133097411999396,0.9635283900000016,0.9635283900000016,-9.810000000000000,9.810000000000000,0.7000000000000000
1.60000,0.08052480801999397,0.8654283900000017,0.8654283900000017,-9.810000000000000,9.810000000000000,0.7000000000000000
1.61000,0.08873764191999398,0.7673283900000019,0.7673283900000019,-9.810000000000000,9.810000000000000,0.7000000000000000
1.62000,0.09596947581999400,0.6692283900000020,0.6692283900000020,-9.810000000000000,9.810000000000000,0.7000000000000000
